1,1,79281
1,2,79532
1,3,79921
1,4,80067
1,5,80428
1,6,80877
1,7,81106
1,8,81341
1,9,81792
1,10,81911
1,11,82114
1,12,82354
1,13,82762
1,14,83088
1,15,83442
1,16,83776
1,17,84213
1,18,84385
1,19,84773
1,20,85073
1,21,85386
1,22,85721
1,23,86122
1,24,86549
1,25,86878
1,26,87124
1,27,87446
1,28,87879
1,29,88221
1,30,88586
1,31,88524
1,32,89346
1,33,89548
1,34,89922
1,35,90166
1,36,90739
1,37,91135
1,38,91319
1,39,91742
1,40,92047
1,41,92521
1,42,92899
1,43,93150
1,44,93627
1,45,93785
1,46,94215
1,47,94561
1,48,94744
1,49,95120
1,50,95594
1,51,95891
1,52,96166
1,53,96465
1,54,97167
1,55,97368
1,56,97646
1,57,98023
1,58,98510
1,59,98715
1,60,99048
1,61,99509
1,62,100027
1,63,100444
1,64,100875
1,65,101391
1,66,101640
1,67,102092
1,68,102450
1,69,102992
1,70,103206
1,71,103900
1,72,104106
1,73,104649
1,74,105326
1,75,105625
1,76,106097
1,77,106510
1,78,106877
1,79,107362
1,80,107874
1,81,108218
1,82,108957
1,83,109426
1,84,109909
1,85,110486
1,86,110992
1,87,112000
1,88,112379
1,89,113071
1,90,113955
1,91,114550
1,92,115312
1,93,116055
1,94,116921
1,95,117603
1,96,118562
1,97,119432
1,98,120198
1,99,121257
1,100,122437
1,101,123563
1,102,124366
1,103,125581
1,104,126969
1,105,128495
1,106,129781
1,107,131150
1,108,132523
1,109,133986
1,110,135592
1,111,136784
1,112,138554
1,113,139821
1,114,141323
1,115,142207
1,116,142831
1,117,143012
1,118,142854
1,119,142229
1,120,141688
1,121,140558
1,122,139359
1,123,137902
1,124,136379
1,125,134891
1,126,132967
1,127,131180
1,128,130385
1,129,130286
1,130,131528
1,131,138122
1,132,149526
1,133,164799
1,134,189293
1,135,230479
1,136,297545
1,137,383540
1,138,478327
1,139,574830
1,140,696539
1,141,805405
1,142,862748
1,143,873397
1,144,837120
1,145,713647
1,146,559391
1,147,420961
1,148,305753
1,149,226001
1,150,174744
1,151,132109
1,152,105257
1,153,93264
1,154,88773
1,155,86244
1,156,84170
1,157,82730
1,158,82088
1,159,81344
1,160,80579
1,161,79943
1,162,79528
1,163,78350
1,164,76689
1,165,75304
1,166,74261
1,167,72895
1,168,71584
1,169,70613
1,170,69710
1,171,69038
1,172,68388
1,173,68017
1,174,67655
1,175,67462
1,176,67404
1,177,67195
1,178,66976
1,179,66930
1,180,66803
1,181,66728
1,182,66648
1,183,66491
1,184,66458
1,185,66296
1,186,66260
1,187,66217
1,188,66081
1,189,66049
1,190,65917
1,191,65921
1,192,65748
1,193,65652
1,194,65670
1,195,65600
1,196,65558
1,197,65576
1,198,65531
1,199,65614
1,200,65593
1,201,65702
1,202,65667
1,203,65622
1,204,65691
1,205,65673
1,206,65732
1,207,65836
1,208,65846
1,209,65802
1,210,65901
1,211,66186
1,212,66084
1,213,66286
1,214,66653
1,215,67021
1,216,67331
1,217,67666
1,218,68193
1,219,68458
1,220,69016
1,221,69436
1,222,70034
1,223,70445
1,224,71034
1,225,71309
1,226,71638
1,227,71990
1,228,72313
1,229,73014
1,230,73325
1,231,73569
1,232,74584
1,233,76447
1,234,78643
1,235,79966
1,236,83965
1,237,88730
1,238,91417
1,239,94238
1,240,98800
1,241,102915
1,242,101201
1,243,100743
1,244,101690
1,245,100976
1,246,98782
1,247,98322
1,248,99835
1,249,101575
1,250,103065
1,251,105246
1,252,107303
1,253,109546
1,254,111574
1,255,113962
1,256,117609
1,257,121679
1,258,126124
1,259,130620
1,260,134696
1,261,137512
1,262,139853
1,263,141712
1,264,143445
1,265,146173
1,266,149311
1,267,153596
1,268,157574
1,269,160833
1,270,163945
1,271,165940
1,272,167110
1,273,168105
1,274,169034
1,275,170931
1,276,173790
1,277,176614
1,278,179671
1,279,182613
1,280,185079
1,281,186552
1,282,187750
1,283,188222
1,284,189123
1,285,190435
1,286,192866
1,287,194767
1,288,197259
1,289,200347
1,290,202146
1,291,203638
1,292,204735
1,293,205358
1,294,206239
1,295,207650
1,296,209262
1,297,211834
1,298,214048
1,299,216106
1,300,217858
1,301,219010
1,302,220008
1,303,220540
1,304,221728
1,305,223173
1,306,224251
1,307,225448
1,308,227169
1,309,228568
1,310,230424
1,311,231153
1,312,232283
1,313,233387
1,314,234494
1,315,235243
1,316,235636
1,317,236968
1,318,238254
1,319,239749
1,320,240317
1,321,241936
1,322,242437
1,323,243444
1,324,244209
1,325,244802
1,326,245375
1,327,246495
1,328,247544
1,329,248606
1,330,249646
1,331,250349
1,332,251279
1,333,251676
1,334,252656
1,335,252971
1,336,253463
1,337,254340
1,338,255199
1,339,256061
1,340,256780
1,341,257888
1,342,258758
1,343,259346
1,344,260001
1,345,260329
1,346,261349
1,347,262259
1,348,263036
1,349,263199
1,350,264227
1,351,265146
1,352,265517
1,353,266039
1,354,266665
1,355,267617
1,356,268174
1,357,268596
1,358,269252
1,359,269908
1,360,270924
1,361,271019
1,362,271734
1,363,272465
1,364,272499
1,365,273951
1,366,274355
1,367,274673
1,368,275743
1,369,276256
1,370,276721
1,371,277615
1,372,278137
1,373,279147
1,374,280022
1,375,280234
1,376,281484
1,377,281701
1,378,282156
1,379,283077
1,380,283497
1,381,284506
1,382,285270
1,383,285415
1,384,286689
1,385,287604
1,386,287003
1,387,288653
1,388,289365
1,389,289815
1,390,290155
1,391,291623
1,392,291668
1,393,292615
1,394,293558
1,395,294010
1,396,294818
1,397,295907
1,398,296166
1,399,297121
1,400,297535
1,401,299388
1,402,299264
1,403,300068
1,404,301234
1,405,301670
1,406,302674
1,407,303308
1,408,304070
1,409,305045
1,410,305602
1,411,306705
1,412,307246
1,413,308004
1,414,308961
1,415,309841
1,416,310807
1,417,310845
1,418,311963
1,419,312767
1,420,314060
1,421,314717
1,422,315757
1,423,316569
1,424,317787
1,425,318181
1,426,319297
1,427,320496
1,428,321160
1,429,322159
1,430,323127
1,431,323678
1,432,325442
1,433,326382
1,434,327195
1,435,328213
1,436,328949
1,437,329945
1,438,330952
1,439,332367
1,440,333331
1,441,335094
1,442,336433
1,443,336979
1,444,338309
1,445,339000
1,446,340974
1,447,342444
1,448,343720
1,449,344593
1,450,345219
1,451,347215
1,452,347994
1,453,350254
1,454,350370
1,455,351137
1,456,352713
1,457,354130
1,458,355087
1,459,356261
1,460,357382
1,461,358787
1,462,359511
1,463,360524
1,464,362194
1,465,363057
1,466,363809
1,467,365887
1,468,367273
1,469,368984
1,470,370257
1,471,370889
1,472,372858
1,473,374282
1,474,375181
1,475,376791
1,476,378042
1,477,379762
1,478,380957
1,479,382239
1,480,383771
1,481,384718
1,482,386685
1,483,388337
1,484,389668
1,485,391639
1,486,392823
1,487,393730
1,488,395580
1,489,396702
1,490,398299
1,491,400007
1,492,401572
1,493,403119
1,494,405110
1,495,407153
1,496,408528
1,497,409423
1,498,411597
1,499,413125
1,500,415933
1,501,417053
1,502,418691
1,503,420428
1,504,422470
1,505,423580
1,506,426343
1,507,427244
1,508,429409
1,509,431748
1,510,433358
1,511,434650
1,512,436336
1,513,438042
1,514,440209
1,515,442212
1,516,443911
1,517,445721
1,518,447954
1,519,449862
1,520,451096
1,521,453225
1,522,454440
1,523,456743
1,524,458173
1,525,459853
1,526,461976
1,527,463456
1,528,464910
1,529,466425
1,530,468277
1,531,470043
1,532,472369
1,533,473425
1,534,475899
1,535,476646
1,536,479668
1,537,481716
1,538,482814
1,539,484755
1,540,487511
1,541,488962
1,542,490713
1,543,492775
1,544,495174
1,545,497409
1,546,499410
1,547,500611
1,548,502973
1,549,504365
1,550,506604
1,551,507033
1,552,509771
1,553,511494
1,554,513647
1,555,516471
1,556,518063
1,557,519681
1,558,522123
1,559,524827
1,560,526597
1,561,528262
1,562,530742
1,563,532863
1,564,534996
1,565,537672
1,566,539207
1,567,541728
1,568,543223
1,569,545756
1,570,549088
1,571,550447
1,572,553564
1,573,555524
1,574,557697
1,575,559191
1,576,561916
1,577,563842
1,578,567409
1,579,569028
1,580,571119
1,581,574647
1,582,576737
1,583,578940
1,584,580973
1,585,583729
1,586,585840
1,587,588733
1,588,590770
1,589,590994
1,590,593870
1,591,594763
1,592,598782
1,593,600384
1,594,602412
1,595,604638
1,596,605842
1,597,608910
1,598,611028
1,599,613038
1,600,615110
1,601,617247
1,602,619946
1,603,620854
1,604,621998
1,605,623057
1,606,625777
1,607,625582
1,608,627660
1,609,629128
1,610,630373
1,611,633025
1,612,634122
1,613,636359
1,614,637154
1,615,638811
1,616,640303
1,617,640242
1,618,642873
1,619,644135
1,620,645648
1,621,647233
1,622,649334
1,623,651103
1,624,651597
1,625,654062
1,626,655229
1,627,657383
1,628,658767
1,629,660690
1,630,660495
1,631,662662
1,632,665089
1,633,666110
1,634,667736
1,635,667949
1,636,669855
1,637,671603
1,638,672151
1,639,674277
1,640,674793
1,641,676766
1,642,677473
1,643,678995
1,644,679601
1,645,680970
1,646,683315
1,647,684695
1,648,684650
1,649,685520
1,650,686517
1,651,688301
1,652,689603
1,653,690136
1,654,691813
1,655,692780
1,656,694444
1,657,695679
1,658,696720
1,659,698598
1,660,699483
1,661,701071
1,662,701593
1,663,702408
1,664,702475
1,665,702187
1,666,702651
1,667,702093
1,668,702317
1,669,703233
1,670,703448
1,671,703932
1,672,704545
1,673,704779
1,674,706250
1,675,706196
1,676,706896
1,677,708512
1,678,708722
1,679,709111
1,680,710600
1,681,712193
1,682,712340
1,683,711541
1,684,712062
1,685,713868
1,686,713615
1,687,714661
1,688,714832
1,689,715402
1,690,716205
1,691,717058
1,692,717300
1,693,716333
1,694,717051
1,695,717040
1,696,717560
1,697,717412
1,698,717778
1,699,717514
1,700,718269
1,701,718144
1,702,718009
1,703,718347
1,704,718258
1,705,717736
1,706,717711
1,707,718294
1,708,717815
1,709,717955
1,710,717480
1,711,717988
1,712,718101
1,713,718755
1,714,719611
1,715,720361
1,716,720189
1,717,720380
1,718,720251
1,719,719884
1,720,720105
1,721,719693
1,722,720051
1,723,720165
1,724,719374
1,725,719670
1,726,719621
1,727,718960
1,728,718161
1,729,718666
1,730,717835
1,731,716928
1,732,717421
1,733,714818
1,734,713770
1,735,711853
1,736,710655
1,737,709502
1,738,708019
1,739,706826
1,740,706176
1,741,703639
1,742,702713
1,743,701945
1,744,701545
1,745,700288
1,746,699514
1,747,698244
1,748,698020
1,749,697210
1,750,696711
1,751,694703
1,752,693877
1,753,693854
1,754,693070
1,755,690872
1,756,690078
1,757,688476
1,758,687471
1,759,685679
1,760,684882
1,761,683225
1,762,683711
1,763,682796
1,764,681546
1,765,681049
1,766,679044
1,767,679062
1,768,677413
1,769,675788
1,770,675097
1,771,674272
1,772,673110
1,773,672814
1,774,670736
1,775,670757
1,776,670154
1,777,669439
1,778,668380
1,779,667317
1,780,666400
1,781,666272
1,782,665095
1,783,664597
1,784,663775
1,785,662123
1,786,661853
1,787,659737
1,788,659638
1,789,659553
1,790,657298
1,791,657176
1,792,656313
1,793,655531
1,794,653591
1,795,652716
1,796,652475
1,797,651592
1,798,650275
1,799,649635
1,800,649851
1,801,648487
1,802,647326
1,803,646404
1,804,644811
1,805,643729
1,806,643290
1,807,642288
1,808,641475
1,809,641664
1,810,639179
1,811,638991
1,812,638695
1,813,637863
1,814,636374
1,815,636153
1,816,635705
1,817,633953
1,818,633676
1,819,632907
1,820,632469
1,821,631668
1,822,630454
1,823,630182
1,824,629741
1,825,629159
1,826,628423
1,827,628059
1,828,628152
1,829,628191
1,830,628091
1,831,628321
1,832,627634
1,833,628336
1,834,628672
1,835,628516
1,836,628907
1,837,629064
1,838,629428
1,839,629608
1,840,630449
1,841,629634
1,842,629800
1,843,629219
1,844,628383
1,845,627470
1,846,625547
1,847,624385
1,848,622030
1,849,621656
1,850,619510
1,851,617579
1,852,616408
1,853,614199
1,854,611880
1,855,610797
1,856,610183
1,857,609327
1,858,608303
1,859,608637
1,860,608561
1,861,608286
1,862,609256
1,863,609835
1,864,609743
1,865,611292
1,866,610724
1,867,609815
1,868,609502
1,869,608338
1,870,606111
1,871,604982
1,872,601809
1,873,599195
1,874,597808
1,875,595219
1,876,592720
1,877,591083
1,878,589235
1,879,586995
1,880,585922
1,881,584367
1,882,582670
1,883,580839
1,884,578766
1,885,577167
1,886,576888
1,887,574654
1,888,573758
1,889,571886
1,890,570935
1,891,570176
1,892,569262
1,893,567938
1,894,567231
1,895,565965
1,896,565299
1,897,564162
1,898,563050
1,899,562738
1,900,562346
1,901,561184
1,902,560923
1,903,558669
1,904,558556
1,905,557929
1,906,557399
1,907,556923
1,908,555754
1,909,555095
1,910,554391
1,911,553213
1,912,551866
1,913,552109
1,914,550695
1,915,550132
1,916,548700
1,917,548081
1,918,546378
1,919,544989
1,920,544852
1,921,544187
1,922,543228
1,923,541825
1,924,541527
1,925,541202
1,926,539502
1,927,538940
1,928,538659
1,929,538558
1,930,537029
1,931,537905
1,932,537320
1,933,536424
1,934,535491
1,935,535084
1,936,534702
1,937,533847
1,938,533691
1,939,532802
1,940,531669
1,941,531726
1,942,531202
1,943,532147
1,944,531638
1,945,531523
1,946,531961
1,947,532135
1,948,531916
1,949,532058
1,950,532858
1,951,534964
1,952,536591
1,953,539283
1,954,541244
1,955,544985
1,956,548573
1,957,551335
1,958,554071
1,959,555256
1,960,555674
1,961,555546
1,962,553801
1,963,552469
1,964,549790
1,965,547400
1,966,545628
1,967,542834
1,968,541895
1,969,540020
1,970,538652
1,971,536545
1,972,534205
1,973,531920
1,974,529555
1,975,527840
1,976,525479
1,977,522947
1,978,520752
1,979,517936
1,980,516594
1,981,514773
1,982,512066
1,983,510913
1,984,508720
1,985,507545
1,986,505533
1,987,504555
1,988,503025
1,989,501631
1,990,501758
1,991,499926
1,992,498714
1,993,497525
1,994,496727
1,995,496586
1,996,494794
1,997,494768
1,998,493453
1,999,492549
1,1000,492135
1,1001,491776
1,1002,491052
1,1003,490136
1,1004,489791
1,1005,489504
1,1006,488490
1,1007,487478
1,1008,487134
1,1009,485966
1,1010,486095
1,1011,484589
1,1012,484631
1,1013,483842
1,1014,483145
1,1015,482818
1,1016,482290
1,1017,481445
1,1018,480901
1,1019,480247
1,1020,479951
1,1021,479114
1,1022,478203
1,1023,477558
1,1024,477246
1,1025,477204
1,1026,475764
1,1027,475652
1,1028,475116
1,1029,474626
1,1030,473666
1,1031,472592
1,1032,472761
1,1033,472756
1,1034,472039
1,1035,471347
1,1036,470615
1,1037,470501
1,1038,470072
1,1039,469308
1,1040,468598
1,1041,468182
1,1042,467770
1,1043,466313
1,1044,466900
1,1045,465988
1,1046,466079
1,1047,464926
1,1048,465061
1,1049,463867
1,1050,463437
1,1051,463241
1,1052,461913
1,1053,462150
1,1054,461737
1,1055,460624
1,1056,460507
1,1057,460232
1,1058,459577
1,1059,459720
1,1060,458605
1,1061,458239
1,1062,457881
1,1063,457731
1,1064,457432
1,1065,456117
1,1066,456112
1,1067,455638
1,1068,454830
1,1069,454773
1,1070,454594
1,1071,453231
1,1072,453407
1,1073,452641
1,1074,452591
1,1075,451433
1,1076,451789
1,1077,450857
1,1078,450316
1,1079,449473
1,1080,449739
1,1081,449744
1,1082,449123
1,1083,449039
1,1084,448135
1,1085,447986
1,1086,447554
1,1087,447287
1,1088,447003
1,1089,446872
1,1090,446336
1,1091,446107
1,1092,446102
1,1093,446286
1,1094,445449
1,1095,446057
1,1096,445546
1,1097,446231
1,1098,444623
1,1099,445491
1,1100,445478
1,1101,445988
1,1102,446760
1,1103,447042
1,1104,448769
1,1105,450146
1,1106,452558
1,1107,455216
1,1108,458470
1,1109,462237
1,1110,466618
1,1111,472028
1,1112,475843
1,1113,479592
1,1114,482728
1,1115,483453
1,1116,483315
1,1117,482013
1,1118,477910
1,1119,472789
1,1120,467457
1,1121,460852
1,1122,455810
1,1123,450383
1,1124,445671
1,1125,442397
1,1126,439586
1,1127,436505
1,1128,434331
1,1129,432937
1,1130,431497
1,1131,430383
1,1132,428892
1,1133,429086
1,1134,427479
1,1135,426712
1,1136,426372
1,1137,425431
1,1138,424567
1,1139,424227
1,1140,423285
1,1141,423034
1,1142,423045
1,1143,422137
1,1144,422078
1,1145,421203
1,1146,420994
1,1147,420340
1,1148,419891
1,1149,419575
1,1150,419314
1,1151,418527
1,1152,417362
1,1153,417290
1,1154,416859
1,1155,416586
1,1156,416182
1,1157,415750
1,1158,415878
1,1159,414797
1,1160,414645
1,1161,414167
1,1162,413361
1,1163,413663
1,1164,413746
1,1165,413011
1,1166,412685
1,1167,411975
1,1168,412561
1,1169,412160
1,1170,411112
1,1171,412006
1,1172,410874
1,1173,411537
1,1174,411467
1,1175,411618
1,1176,412035
1,1177,411869
1,1178,411803
1,1179,411651
1,1180,411869
1,1181,411854
1,1182,411846
1,1183,412075
1,1184,411855
1,1185,410623
1,1186,410528
1,1187,410340
1,1188,409764
1,1189,408462
1,1190,407354
1,1191,406382
1,1192,405008
1,1193,403981
1,1194,404147
1,1195,402443
1,1196,401692
1,1197,400670
1,1198,399767
1,1199,398876
1,1200,398351
1,1201,397640
1,1202,396718
1,1203,396224
1,1204,395871
1,1205,395242
1,1206,394898
1,1207,394290
1,1208,393694
1,1209,393398
1,1210,392273
1,1211,391750
1,1212,391601
1,1213,390831
1,1214,390569
1,1215,389879
1,1216,388849
1,1217,388414
1,1218,387964
1,1219,387147
1,1220,386923
1,1221,386210
1,1222,385482
1,1223,384522
1,1224,383987
1,1225,383359
1,1226,382412
1,1227,381470
1,1228,381473
1,1229,380015
1,1230,379342
1,1231,378174
1,1232,377554
1,1233,376697
1,1234,376302
1,1235,374966
1,1236,375161
1,1237,373462
1,1238,373277
1,1239,372239
1,1240,370973
1,1241,370687
1,1242,369300
1,1243,369067
1,1244,367274
1,1245,367182
1,1246,366663
1,1247,365794
1,1248,364286
1,1249,363810
1,1250,362792
1,1251,362365
1,1252,360801
1,1253,359593
1,1254,359356
1,1255,358262
1,1256,357155
1,1257,356354
1,1258,355358
1,1259,354197
1,1260,353239
1,1261,352384
1,1262,351817
1,1263,351031
1,1264,350195
1,1265,348965
1,1266,348221
1,1267,346874
1,1268,346459
1,1269,345085
1,1270,344496
1,1271,343471
1,1272,342547
1,1273,341472
1,1274,340827
1,1275,340127
1,1276,339136
1,1277,339085
1,1278,337199
1,1279,336097
1,1280,334117
1,1281,333849
1,1282,332155
1,1283,331050
1,1284,330248
1,1285,328796
1,1286,328144
1,1287,325980
1,1288,325198
1,1289,323875
1,1290,322704
1,1291,321034
1,1292,319624
1,1293,318381
1,1294,316748
1,1295,315178
1,1296,313751
1,1297,312334
1,1298,311512
1,1299,309544
1,1300,308282
1,1301,307036
1,1302,304725
1,1303,304098
1,1304,302524
1,1305,300541
1,1306,299253
1,1307,297245
1,1308,295760
1,1309,294460
1,1310,292881
1,1311,291764
1,1312,289582
1,1313,288759
1,1314,286999
1,1315,285061
1,1316,283825
1,1317,281905
1,1318,280619
1,1319,279182
1,1320,277864
1,1321,276076
1,1322,274696
1,1323,272812
1,1324,271649
1,1325,269957
1,1326,268586
1,1327,267031
1,1328,265674
1,1329,264079
1,1330,262726
1,1331,260863
1,1332,259334
1,1333,257775
1,1334,256320
1,1335,254995
1,1336,253222
1,1337,251924
1,1338,250332
1,1339,249059
1,1340,247130
