1,1,113987
1,2,114929
1,3,115676
1,4,116729
1,5,117593
1,6,118498
1,7,119418
1,8,120169
1,9,121043
1,10,121936
1,11,122646
1,12,123580
1,13,124814
1,14,125205
1,15,126350
1,16,127695
1,17,128221
1,18,129447
1,19,130088
1,20,131157
1,21,132188
1,22,133000
1,23,134051
1,24,135549
1,25,136283
1,26,137355
1,27,137948
1,28,139091
1,29,140250
1,30,140852
1,31,142229
1,32,143065
1,33,144265
1,34,145158
1,35,146290
1,36,147153
1,37,148479
1,38,149271
1,39,150357
1,40,151098
1,41,152397
1,42,153439
1,43,154703
1,44,155428
1,45,156471
1,46,157608
1,47,158547
1,48,159559
1,49,160880
1,50,161299
1,51,162961
1,52,164015
1,53,164981
1,54,166188
1,55,167076
1,56,168185
1,57,169329
1,58,170502
1,59,171701
1,60,172521
1,61,173927
1,62,175303
1,63,176554
1,64,177901
1,65,179026
1,66,179948
1,67,180823
1,68,182312
1,69,183439
1,70,184286
1,71,185772
1,72,187079
1,73,188328
1,74,189718
1,75,190979
1,76,192110
1,77,193266
1,78,194395
1,79,195611
1,80,196742
1,81,198351
1,82,199483
1,83,201248
1,84,202180
1,85,203481
1,86,205209
1,87,206588
1,88,208219
1,89,209798
1,90,211205
1,91,212537
1,92,214064
1,93,215085
1,94,217378
1,95,218472
1,96,220048
1,97,222006
1,98,223724
1,99,225183
1,100,227283
1,101,229072
1,102,230877
1,103,232699
1,104,233927
1,105,236139
1,106,237728
1,107,239885
1,108,241230
1,109,243493
1,110,244408
1,111,245955
1,112,246886
1,113,247944
1,114,248085
1,115,247247
1,116,245958
1,117,242818
1,118,239566
1,119,235155
1,120,230243
1,121,224828
1,122,219450
1,123,213003
1,124,206885
1,125,200625
1,126,193978
1,127,188290
1,128,183743
1,129,180406
1,130,180382
1,131,188722
1,132,204678
1,133,227606
1,134,264720
1,135,328856
1,136,432369
1,137,564907
1,138,714881
1,139,874155
1,140,1.06022e+006
1,141,1.22488e+006
1,142,1.31649e+006
1,143,1.34127e+006
1,144,1.27467e+006
1,145,1.07533e+006
1,146,848371
1,147,635484
1,148,453607
1,149,324262
1,150,241511
1,151,172815
1,152,130642
1,153,111674
1,154,104070
1,155,100433
1,156,97183
1,157,94653
1,158,93728
1,159,92807
1,160,91883
1,161,90728
1,162,90052
1,163,88359
1,164,85990
1,165,83896
1,166,82165
1,167,79878
1,168,77744
1,169,76043
1,170,74603
1,171,73513
1,172,72639
1,173,71982
1,174,71598
1,175,71209
1,176,71102
1,177,70787
1,178,70496
1,179,70379
1,180,70194
1,181,69909
1,182,69850
1,183,69722
1,184,69588
1,185,69392
1,186,69334
1,187,69143
1,188,69031
1,189,68978
1,190,68853
1,191,68740
1,192,68498
1,193,68430
1,194,68461
1,195,68395
1,196,68320
1,197,68313
1,198,68375
1,199,68472
1,200,68456
1,201,68533
1,202,68573
1,203,68582
1,204,68681
1,205,68683
1,206,68738
1,207,68822
1,208,68882
1,209,68930
1,210,69192
1,211,69389
1,212,69514
1,213,69885
1,214,70347
1,215,70854
1,216,71448
1,217,72108
1,218,72823
1,219,73441
1,220,74347
1,221,75146
1,222,75877
1,223,76704
1,224,77540
1,225,77927
1,226,78695
1,227,79402
1,228,80116
1,229,81013
1,230,81817
1,231,82936
1,232,84781
1,233,88136
1,234,91877
1,235,95322
1,236,101993
1,237,110655
1,238,115997
1,239,122023
1,240,131065
1,241,139830
1,242,139945
1,243,141773
1,244,145488
1,245,146808
1,246,146247
1,247,149275
1,248,155383
1,249,162702
1,250,169853
1,251,177223
1,252,184533
1,253,191804
1,254,197572
1,255,205424
1,256,215598
1,257,227712
1,258,240609
1,259,253786
1,260,264764
1,261,273293
1,262,279421
1,263,285223
1,264,290968
1,265,298482
1,266,307729
1,267,318948
1,268,330595
1,269,340497
1,270,348845
1,271,355059
1,272,357746
1,273,360436
1,274,363735
1,275,369343
1,276,376612
1,277,385946
1,278,394969
1,279,402623
1,280,410211
1,281,413780
1,282,416279
1,283,418041
1,284,421400
1,285,426386
1,286,432044
1,287,439205
1,288,446374
1,289,453299
1,290,459064
1,291,463501
1,292,466923
1,293,469259
1,294,472086
1,295,475488
1,296,480036
1,297,485535
1,298,492400
1,299,497757
1,300,502428
1,301,506868
1,302,509679
1,303,511017
1,304,514609
1,305,517519
1,306,520619
1,307,525010
1,308,528509
1,309,532958
1,310,537430
1,311,540274
1,312,542966
1,313,545484
1,314,547032
1,315,549413
1,316,551252
1,317,554425
1,318,558362
1,319,561723
1,320,563920
1,321,566726
1,322,568831
1,323,570428
1,324,572129
1,325,573479
1,326,575094
1,327,577516
1,328,580323
1,329,582922
1,330,585540
1,331,587070
1,332,588452
1,333,590406
1,334,591309
1,335,592803
1,336,593686
1,337,595296
1,338,596760
1,339,598827
1,340,601564
1,341,603503
1,342,605085
1,343,606624
1,344,607438
1,345,609091
1,346,610231
1,347,611584
1,348,612508
1,349,614722
1,350,615788
1,351,616585
1,352,618086
1,353,619759
1,354,620838
1,355,621470
1,356,623283
1,357,624294
1,358,625835
1,359,625876
1,360,627106
1,361,628702
1,362,629412
1,363,630863
1,364,631915
1,365,633628
1,366,633904
1,367,635319
1,368,636805
1,369,638161
1,370,638319
1,371,639766
1,372,640219
1,373,642155
1,374,644000
1,375,643238
1,376,644398
1,377,645879
1,378,646540
1,379,647952
1,380,649607
1,381,650143
1,382,650783
1,383,651282
1,384,653432
1,385,654015
1,386,653235
1,387,654682
1,388,655291
1,389,657357
1,390,658052
1,391,659036
1,392,659833
1,393,660382
1,394,661803
1,395,662552
1,396,663282
1,397,664886
1,398,665355
1,399,665858
1,400,665997
1,401,667535
1,402,668654
1,403,669714
1,404,670171
1,405,672826
1,406,672989
1,407,672653
1,408,674034
1,409,675388
1,410,675323
1,411,675285
1,412,677068
1,413,677643
1,414,678577
1,415,679827
1,416,680635
1,417,681644
1,418,682096
1,419,682415
1,420,683671
1,421,684662
1,422,684967
1,423,686083
1,424,687311
1,425,689055
1,426,688811
1,427,690137
1,428,689640
1,429,691476
1,430,692493
1,431,692902
1,432,693598
1,433,695479
1,434,696457
1,435,696243
1,436,697432
1,437,697655
1,438,699277
1,439,698875
1,440,700316
1,441,701834
1,442,701357
1,443,703730
1,444,703725
1,445,705078
1,446,706458
1,447,708098
1,448,708692
1,449,708225
1,450,708794
1,451,711134
1,452,710588
1,453,712261
1,454,712939
1,455,713453
1,456,714972
1,457,715203
1,458,715991
1,459,716670
1,460,717611
1,461,719310
1,462,719642
1,463,719985
1,464,720961
1,465,721597
1,466,722556
1,467,723308
1,468,723861
1,469,724356
1,470,725848
1,471,726483
1,472,727342
1,473,727626
1,474,728505
1,475,729964
1,476,730291
1,477,731986
1,478,732336
1,479,732508
1,480,734824
1,481,735138
1,482,735510
1,483,735273
1,484,736476
1,485,737273
1,486,738121
1,487,738570
1,488,739292
1,489,740357
1,490,741163
1,491,741692
1,492,741707
1,493,742619
1,494,743696
1,495,745145
1,496,746666
1,497,747428
1,498,748456
1,499,749464
1,500,750604
1,501,749826
1,502,750365
1,503,751345
1,504,752797
1,505,753342
1,506,754104
1,507,755462
1,508,756982
1,509,757692
1,510,758923
1,511,760047
1,512,760507
1,513,760762
1,514,761407
1,515,761540
1,516,763689
1,517,764118
1,518,765135
1,519,765261
1,520,766633
1,521,766283
1,522,766693
1,523,768759
1,524,768768
1,525,767949
1,526,770051
1,527,770577
1,528,771929
1,529,772773
1,530,772631
1,531,773100
1,532,774318
1,533,773953
1,534,775086
1,535,775083
1,536,776664
1,537,777047
1,538,778013
1,539,778983
1,540,778198
1,541,779038
1,542,780370
1,543,780821
1,544,780527
1,545,781910
1,546,782326
1,547,782961
1,548,783814
1,549,785619
1,550,785045
1,551,785181
1,552,785834
1,553,787368
1,554,787216
1,555,788390
1,556,788248
1,557,789097
1,558,790423
1,559,791995
1,560,791806
1,561,792028
1,562,793970
1,563,794233
1,564,794897
1,565,794879
1,566,795475
1,567,797051
1,568,798473
1,569,798693
1,570,800246
1,571,799941
1,572,801492
1,573,802543
1,574,802890
1,575,804354
1,576,805702
1,577,806230
1,578,808188
1,579,808298
1,580,808140
1,581,810420
1,582,810278
1,583,811934
1,584,813629
1,585,814394
1,586,815528
1,587,815603
1,588,816233
1,589,816786
1,590,816389
1,591,817525
1,592,817207
1,593,818584
1,594,819264
1,595,820593
1,596,821259
1,597,821092
1,598,819670
1,599,822568
1,600,821881
1,601,823539
1,602,824166
1,603,824045
1,604,825937
1,605,824895
1,606,825359
1,607,824828
1,608,825151
1,609,826927
1,610,826960
1,611,827213
1,612,827386
1,613,826548
1,614,827286
1,615,827840
1,616,827660
1,617,827606
1,618,827516
1,619,827751
1,620,828624
1,621,828755
1,622,828919
1,623,829917
1,624,829516
1,625,829728
1,626,830740
1,627,830959
1,628,831995
1,629,832293
1,630,832591
1,631,832324
1,632,832855
1,633,831725
1,634,833672
1,635,832842
1,636,833258
1,637,834034
1,638,834404
1,639,835189
1,640,835808
1,641,834202
1,642,833921
1,643,835678
1,644,835242
1,645,835862
1,646,837280
1,647,836458
1,648,836974
1,649,836705
1,650,837484
1,651,837695
1,652,838229
1,653,838350
1,654,839300
1,655,838482
1,656,840421
1,657,840410
1,658,841055
1,659,841055
1,660,841994
1,661,841685
1,662,841800
1,663,841804
1,664,842377
1,665,841733
1,666,840735
1,667,841384
1,668,839375
1,669,841234
1,670,840072
1,671,839403
1,672,840575
1,673,840423
1,674,841330
1,675,840178
1,676,841857
1,677,843317
1,678,842365
1,679,841109
1,680,843454
1,681,844843
1,682,843876
1,683,843583
1,684,843051
1,685,845555
1,686,846012
1,687,845528
1,688,845599
1,689,846579
1,690,846839
1,691,846389
1,692,846519
1,693,846610
1,694,846165
1,695,846615
1,696,846637
1,697,846362
1,698,847363
1,699,848540
1,700,847691
1,701,848199
1,702,848626
1,703,848620
1,704,848117
1,705,848206
1,706,847781
1,707,848716
1,708,848923
1,709,848912
1,710,849499
1,711,848283
1,712,849693
1,713,851750
1,714,850785
1,715,852130
1,716,852211
1,717,851936
1,718,853823
1,719,854114
1,720,854090
1,721,853764
1,722,852896
1,723,854011
1,724,854174
1,725,854900
1,726,855148
1,727,855163
1,728,855198
1,729,855460
1,730,855644
1,731,854258
1,732,854257
1,733,853490
1,734,852885
1,735,850589
1,736,850670
1,737,850252
1,738,848310
1,739,848841
1,740,846938
1,741,845924
1,742,846241
1,743,844564
1,744,844386
1,745,844160
1,746,845177
1,747,843820
1,748,844639
1,749,844228
1,750,843492
1,751,843093
1,752,843353
1,753,843860
1,754,842086
1,755,842304
1,756,841543
1,757,840596
1,758,839791
1,759,839610
1,760,839692
1,761,839454
1,762,839478
1,763,838041
1,764,838693
1,765,838851
1,766,837716
1,767,838550
1,768,836911
1,769,836731
1,770,836857
1,771,837236
1,772,837048
1,773,835929
1,774,836914
1,775,836662
1,776,836902
1,777,836264
1,778,835618
1,779,835540
1,780,836537
1,781,835595
1,782,835658
1,783,836427
1,784,835962
1,785,834956
1,786,835987
1,787,835376
1,788,835339
1,789,835137
1,790,834453
1,791,835894
1,792,836507
1,793,835536
1,794,835023
1,795,833733
1,796,832917
1,797,834281
1,798,832373
1,799,834253
1,800,834586
1,801,835106
1,802,834648
1,803,834324
1,804,833728
1,805,833554
1,806,835050
1,807,834448
1,808,833658
1,809,834899
1,810,833830
1,811,834034
1,812,834555
1,813,834202
1,814,834465
1,815,834689
1,816,835061
1,817,834403
1,818,834345
1,819,834701
1,820,834928
1,821,835569
1,822,834712
1,823,836222
1,824,835693
1,825,835518
1,826,836121
1,827,835678
1,828,836417
1,829,837021
1,830,837236
1,831,837674
1,832,838881
1,833,840164
1,834,841172
1,835,842533
1,836,842936
1,837,843298
1,838,845575
1,839,846360
1,840,846948
1,841,846131
1,842,847795
1,843,847267
1,844,847505
1,845,847757
1,846,847115
1,847,846904
1,848,846250
1,849,846127
1,850,845473
1,851,844140
1,852,843780
1,853,843447
1,854,842741
1,855,842515
1,856,843215
1,857,843441
1,858,843486
1,859,843254
1,860,843769
1,861,846261
1,862,846947
1,863,848530
1,864,849879
1,865,852862
1,866,853761
1,867,853597
1,868,852704
1,869,852825
1,870,851611
1,871,850876
1,872,848216
1,873,846034
1,874,843646
1,875,843060
1,876,842461
1,877,841189
1,878,839933
1,879,838437
1,880,837975
1,881,836390
1,882,836195
1,883,834486
1,884,833750
1,885,832413
1,886,832445
1,887,830027
1,888,831055
1,889,829419
1,890,828852
1,891,829669
1,892,829258
1,893,828382
1,894,828030
1,895,827605
1,896,828220
1,897,827466
1,898,827301
1,899,827472
1,900,827113
1,901,827445
1,902,827330
1,903,825609
1,904,825969
1,905,825613
1,906,826403
1,907,826558
1,908,825431
1,909,825283
1,910,825818
1,911,825449
1,912,824996
1,913,824743
1,914,823739
1,915,823691
1,916,823545
1,917,822972
1,918,821930
1,919,822596
1,920,821141
1,921,823024
1,922,820701
1,923,819944
1,924,819953
1,925,820400
1,926,818972
1,927,818710
1,928,819650
1,929,819236
1,930,818368
1,931,819101
1,932,817661
1,933,819315
1,934,819243
1,935,818593
1,936,818622
1,937,818800
1,938,818993
1,939,818167
1,940,819005
1,941,818781
1,942,818780
1,943,820161
1,944,819794
1,945,820336
1,946,821043
1,947,820219
1,948,820093
1,949,821441
1,950,823388
1,951,824987
1,952,827272
1,953,830912
1,954,834563
1,955,838724
1,956,840993
1,957,845004
1,958,847633
1,959,849328
1,960,851278
1,961,850148
1,962,849062
1,963,846986
1,964,845327
1,965,843947
1,966,841555
1,967,839733
1,968,839301
1,969,838058
1,970,835135
1,971,833682
1,972,832416
1,973,830001
1,974,827980
1,975,826676
1,976,823987
1,977,821673
1,978,818230
1,979,817655
1,980,816095
1,981,813765
1,982,811765
1,983,809953
1,984,808359
1,985,807409
1,986,806607
1,987,804978
1,988,803897
1,989,801896
1,990,801758
1,991,801543
1,992,800360
1,993,799034
1,994,799085
1,995,798415
1,996,797888
1,997,797640
1,998,795488
1,999,795608
1,1000,793654
1,1001,794603
1,1002,793838
1,1003,793573
1,1004,792227
1,1005,791311
1,1006,791113
1,1007,790453
1,1008,789042
1,1009,789051
1,1010,788538
1,1011,788981
1,1012,788003
1,1013,787954
1,1014,786015
1,1015,785495
1,1016,785320
1,1017,785306
1,1018,784840
1,1019,784121
1,1020,783229
1,1021,782812
1,1022,782099
1,1023,782389
1,1024,780606
1,1025,779532
1,1026,779767
1,1027,779818
1,1028,778207
1,1029,777142
1,1030,777252
1,1031,775625
1,1032,776476
1,1033,775312
1,1034,774587
1,1035,774339
1,1036,773273
1,1037,773170
1,1038,772910
1,1039,771617
1,1040,771418
1,1041,771012
1,1042,770217
1,1043,769846
1,1044,769031
1,1045,769015
1,1046,768511
1,1047,767756
1,1048,766781
1,1049,766519
1,1050,765815
1,1051,764335
1,1052,762333
1,1053,763067
1,1054,763575
1,1055,762105
1,1056,761503
1,1057,760938
1,1058,760236
1,1059,759314
1,1060,759067
1,1061,759237
1,1062,758801
1,1063,757800
1,1064,756704
1,1065,756187
1,1066,755208
1,1067,755612
1,1068,754068
1,1069,752411
1,1070,753262
1,1071,751612
1,1072,751468
1,1073,750122
1,1074,750878
1,1075,749298
1,1076,748921
1,1077,748030
1,1078,746788
1,1079,746880
1,1080,746437
1,1081,745661
1,1082,743756
1,1083,743815
1,1084,743022
1,1085,742241
1,1086,742013
1,1087,741889
1,1088,740715
1,1089,740914
1,1090,739906
1,1091,739166
1,1092,739046
1,1093,738598
1,1094,737783
1,1095,738488
1,1096,737275
1,1097,737817
1,1098,736469
1,1099,735826
1,1100,736887
1,1101,736288
1,1102,735960
1,1103,735992
1,1104,737020
1,1105,737387
1,1106,738575
1,1107,740982
1,1108,743533
1,1109,745815
1,1110,748067
1,1111,751600
1,1112,755317
1,1113,757923
1,1114,760317
1,1115,760944
1,1116,759441
1,1117,757062
1,1118,753562
1,1119,748373
1,1120,744468
1,1121,738142
1,1122,733677
1,1123,728711
1,1124,724591
1,1125,720632
1,1126,718184
1,1127,715485
1,1128,712764
1,1129,711910
1,1130,710085
1,1131,709384
1,1132,707584
1,1133,706466
1,1134,704487
1,1135,704400
1,1136,703956
1,1137,702856
1,1138,701026
1,1139,700271
1,1140,698818
1,1141,697824
1,1142,697721
1,1143,695821
1,1144,696352
1,1145,695445
1,1146,693498
1,1147,692707
1,1148,692482
1,1149,691179
1,1150,690259
1,1151,689406
1,1152,687192
1,1153,686688
1,1154,685925
1,1155,684900
1,1156,684598
1,1157,683100
1,1158,683087
1,1159,682424
1,1160,681250
1,1161,678978
1,1162,678424
1,1163,677932
1,1164,677295
1,1165,677201
1,1166,677271
1,1167,676187
1,1168,674804
1,1169,674129
1,1170,672942
1,1171,672724
1,1172,671628
1,1173,672516
1,1174,671135
1,1175,670444
1,1176,670895
1,1177,669813
1,1178,669577
1,1179,667836
1,1180,668409
1,1181,668058
1,1182,667204
1,1183,666124
1,1184,665602
1,1185,664714
1,1186,664002
1,1187,662541
1,1188,661180
1,1189,660751
1,1190,658796
1,1191,656405
1,1192,655251
1,1193,653979
1,1194,653266
1,1195,650575
1,1196,649598
1,1197,647623
1,1198,646643
1,1199,645263
1,1200,643864
1,1201,642898
1,1202,642471
1,1203,641886
1,1204,639839
1,1205,638194
1,1206,637435
1,1207,635950
1,1208,635074
1,1209,633905
1,1210,632695
1,1211,631359
1,1212,629547
1,1213,628949
1,1214,626863
1,1215,626551
1,1216,625243
1,1217,623464
1,1218,622873
1,1219,620456
1,1220,619408
1,1221,618226
1,1222,616485
1,1223,615916
1,1224,614083
1,1225,612152
1,1226,611276
1,1227,609022
1,1228,607984
1,1229,606018
1,1230,603850
1,1231,602114
1,1232,601328
1,1233,598886
1,1234,598195
1,1235,596854
1,1236,594643
1,1237,593738
1,1238,591335
1,1239,589513
1,1240,587908
1,1241,586919
1,1242,583630
1,1243,583144
1,1244,581059
1,1245,579414
1,1246,576619
1,1247,576751
1,1248,574940
1,1249,573267
1,1250,571102
1,1251,569183
1,1252,566927
1,1253,565249
1,1254,562605
1,1255,560808
1,1256,558763
1,1257,558661
1,1258,556202
1,1259,553354
1,1260,552814
1,1261,550922
1,1262,549197
1,1263,547454
1,1264,545480
1,1265,543318
1,1266,542573
1,1267,539881
1,1268,538787
1,1269,536458
1,1270,535145
1,1271,532748
1,1272,531632
1,1273,529776
1,1274,528482
1,1275,526421
1,1276,523777
1,1277,523063
1,1278,520694
1,1279,518807
1,1280,515908
1,1281,514344
1,1282,511124
1,1283,509520
1,1284,507789
1,1285,504905
1,1286,502941
1,1287,499682
1,1288,498094
1,1289,495976
1,1290,494094
1,1291,490383
1,1292,487346
1,1293,486334
1,1294,483563
1,1295,481333
1,1296,477928
1,1297,475421
1,1298,473019
1,1299,469873
1,1300,467925
1,1301,465295
1,1302,462403
1,1303,459162
1,1304,457024
1,1305,454923
1,1306,451487
1,1307,448955
1,1308,445973
1,1309,443134
1,1310,440698
1,1311,438338
1,1312,435293
1,1313,432870
1,1314,429976
1,1315,427241
1,1316,424822
1,1317,421597
1,1318,419374
1,1319,416877
1,1320,414307
1,1321,411772
1,1322,408246
1,1323,406296
1,1324,403241
1,1325,400484
1,1326,398556
1,1327,395010
1,1328,392769
1,1329,390203
1,1330,387478
1,1331,385381
1,1332,382318
1,1333,379678
1,1334,377526
1,1335,374434
1,1336,371812
1,1337,369083
1,1338,366783
1,1339,364447
1,1340,362411
