1,1,87659
1,2,89447
1,3,89320
1,4,88675
1,5,89132
1,6,89387
1,7,89543
1,8,89886
1,9,90181
1,10,90581
1,11,91006
1,12,91499
1,13,91926
1,14,92375
1,15,92977
1,16,93325
1,17,93780
1,18,94283
1,19,94703
1,20,95360
1,21,95750
1,22,96711
1,23,97121
1,24,97835
1,25,99743
1,26,99605
1,27,98928
1,28,99277
1,29,99620
1,30,100120
1,31,100825
1,32,101299
1,33,101765
1,34,102127
1,35,102687
1,36,103276
1,37,103769
1,38,104333
1,39,104633
1,40,105410
1,41,105598
1,42,106431
1,43,106787
1,44,107571
1,45,107827
1,46,108219
1,47,109023
1,48,109440
1,49,109956
1,50,110451
1,51,111110
1,52,111302
1,53,112054
1,54,112266
1,55,112783
1,56,113585
1,57,114059
1,58,114981
1,59,115437
1,60,116131
1,61,116688
1,62,117281
1,63,118239
1,64,118236
1,65,118913
1,66,119522
1,67,119949
1,68,120575
1,69,121217
1,70,122146
1,71,122428
1,72,123124
1,73,123778
1,74,124674
1,75,125147
1,76,125865
1,77,126483
1,78,126979
1,79,127485
1,80,128532
1,81,129316
1,82,129904
1,83,130612
1,84,131388
1,85,131949
1,86,133117
1,87,134092
1,88,134836
1,89,135590
1,90,136662
1,91,137558
1,92,138569
1,93,139324
1,94,140366
1,95,141045
1,96,142307
1,97,143717
1,98,144390
1,99,145886
1,100,147158
1,101,148447
1,102,150287
1,103,151142
1,104,152421
1,105,153987
1,106,155523
1,107,157219
1,108,158651
1,109,160161
1,110,161487
1,111,163793
1,112,164341
1,113,166112
1,114,167229
1,115,167267
1,116,167606
1,117,167227
1,118,166140
1,119,164484
1,120,162762
1,121,160544
1,122,158084
1,123,155689
1,124,152469
1,125,149643
1,126,146236
1,127,143536
1,128,141292
1,129,139941
1,130,140039
1,131,145596
1,132,156225
1,133,169753
1,134,193011
1,135,233710
1,136,300782
1,137,385892
1,138,482681
1,139,580538
1,140,698361
1,141,806915
1,142,871704
1,143,883580
1,144,831804
1,145,704575
1,146,549362
1,147,403771
1,148,291126
1,149,215405
1,150,167936
1,151,129810
1,152,106346
1,153,94839
1,154,90616
1,155,88302
1,156,86556
1,157,84961
1,158,84287
1,159,83381
1,160,82416
1,161,81594
1,162,81252
1,163,80067
1,164,78275
1,165,76875
1,166,75699
1,167,74116
1,168,72874
1,169,71656
1,170,70773
1,171,70041
1,172,69308
1,173,68913
1,174,68571
1,175,68385
1,176,68227
1,177,68016
1,178,67804
1,179,67764
1,180,67549
1,181,67430
1,182,67255
1,183,67226
1,184,67145
1,185,67012
1,186,66918
1,187,66889
1,188,66730
1,189,66632
1,190,66548
1,191,66522
1,192,66288
1,193,66209
1,194,66316
1,195,66261
1,196,66196
1,197,66254
1,198,66254
1,199,66256
1,200,66195
1,201,66383
1,202,66341
1,203,66335
1,204,66487
1,205,66385
1,206,66425
1,207,66490
1,208,66577
1,209,66570
1,210,66662
1,211,66990
1,212,66890
1,213,67216
1,214,67392
1,215,67830
1,216,68370
1,217,68732
1,218,69156
1,219,69604
1,220,70155
1,221,70720
1,222,71343
1,223,71845
1,224,72546
1,225,72947
1,226,73404
1,227,73875
1,228,74318
1,229,74971
1,230,75618
1,231,75968
1,232,77096
1,233,79120
1,234,81632
1,235,83535
1,236,87895
1,237,93938
1,238,97892
1,239,102559
1,240,109074
1,241,114419
1,242,113122
1,243,113128
1,244,113895
1,245,113619
1,246,111947
1,247,112368
1,248,114831
1,249,117815
1,250,120850
1,251,124397
1,252,127360
1,253,131265
1,254,134342
1,255,138549
1,256,143792
1,257,150063
1,258,157018
1,259,163666
1,260,169553
1,261,173968
1,262,177579
1,263,180452
1,264,183366
1,265,187566
1,266,192521
1,267,198689
1,268,204471
1,269,210397
1,270,214308
1,271,217516
1,272,219153
1,273,220947
1,274,222693
1,275,226148
1,276,230211
1,277,234871
1,278,240039
1,279,243952
1,280,247816
1,281,249911
1,282,251754
1,283,252837
1,284,254280
1,285,256573
1,286,260125
1,287,264720
1,288,267995
1,289,272249
1,290,275774
1,291,277910
1,292,280410
1,293,280911
1,294,282831
1,295,284997
1,296,288345
1,297,291689
1,298,294906
1,299,298466
1,300,301291
1,301,303420
1,302,305506
1,303,307164
1,304,308061
1,305,310428
1,306,312415
1,307,314739
1,308,317497
1,309,320334
1,310,322432
1,311,324381
1,312,326062
1,313,327715
1,314,328487
1,315,330205
1,316,331610
1,317,333397
1,318,336327
1,319,337863
1,320,339799
1,321,341650
1,322,343107
1,323,344199
1,324,345824
1,325,347042
1,326,348182
1,327,349687
1,328,351361
1,329,352863
1,330,354814
1,331,356938
1,332,357199
1,333,358292
1,334,359371
1,335,360273
1,336,361675
1,337,362779
1,338,363473
1,339,365241
1,340,366207
1,341,368236
1,342,369126
1,343,370215
1,344,370849
1,345,372141
1,346,373329
1,347,373962
1,348,375541
1,349,376666
1,350,377449
1,351,377951
1,352,379317
1,353,380368
1,354,380978
1,355,381999
1,356,383610
1,357,384254
1,358,384587
1,359,386242
1,360,387232
1,361,387990
1,362,388879
1,363,389290
1,364,390150
1,365,392100
1,366,392702
1,367,393318
1,368,394891
1,369,395052
1,370,396403
1,371,396943
1,372,398111
1,373,398907
1,374,400384
1,375,401104
1,376,401871
1,377,402623
1,378,403754
1,379,404976
1,380,405812
1,381,406442
1,382,407577
1,383,408010
1,384,409196
1,385,410180
1,386,411514
1,387,411960
1,388,412932
1,389,413366
1,390,414960
1,391,415789
1,392,417807
1,393,418369
1,394,419270
1,395,419767
1,396,420978
1,397,422237
1,398,423081
1,399,423467
1,400,425610
1,401,425809
1,402,427099
1,403,428671
1,404,429997
1,405,430621
1,406,431829
1,407,432859
1,408,433811
1,409,434656
1,410,436496
1,411,437286
1,412,437928
1,413,438626
1,414,440958
1,415,441859
1,416,443391
1,417,443807
1,418,445789
1,419,446080
1,420,447824
1,421,449449
1,422,450702
1,423,451452
1,424,453407
1,425,454306
1,426,456204
1,427,457389
1,428,458405
1,429,459610
1,430,460335
1,431,462592
1,432,464027
1,433,465425
1,434,467382
1,435,467626
1,436,469107
1,437,470471
1,438,472318
1,439,473222
1,440,475229
1,441,477168
1,442,479035
1,443,479781
1,444,481588
1,445,483041
1,446,486057
1,447,486328
1,448,487992
1,449,488282
1,450,490144
1,451,492232
1,452,493790
1,453,495284
1,454,497137
1,455,498549
1,456,499512
1,457,501502
1,458,502729
1,459,504323
1,460,505854
1,461,507907
1,462,508400
1,463,508963
1,464,511904
1,465,512379
1,466,514581
1,467,515764
1,468,517686
1,469,517956
1,470,520001
1,471,521574
1,472,522518
1,473,524686
1,474,526432
1,475,527906
1,476,528461
1,477,530805
1,478,531838
1,479,533549
1,480,534333
1,481,535488
1,482,537140
1,483,537783
1,484,539541
1,485,540608
1,486,541671
1,487,543354
1,488,543934
1,489,546081
1,490,547172
1,491,548165
1,492,549570
1,493,550702
1,494,552015
1,495,553282
1,496,554924
1,497,556527
1,498,556396
1,499,558277
1,500,560965
1,501,560569
1,502,561785
1,503,562564
1,504,564302
1,505,564662
1,506,566759
1,507,566983
1,508,569080
1,509,570192
1,510,571227
1,511,571500
1,512,572934
1,513,573703
1,514,575171
1,515,575833
1,516,576921
1,517,577471
1,518,577871
1,519,578965
1,520,580279
1,521,580899
1,522,580417
1,523,582171
1,524,582730
1,525,582634
1,526,583799
1,527,584044
1,528,585058
1,529,585930
1,530,584945
1,531,585709
1,532,586714
1,533,586058
1,534,587159
1,535,587328
1,536,587932
1,537,588392
1,538,588774
1,539,590370
1,540,589011
1,541,590103
1,542,590439
1,543,590154
1,544,590867
1,545,591854
1,546,592323
1,547,592850
1,548,593481
1,549,593786
1,550,593222
1,551,593230
1,552,593785
1,553,594491
1,554,595095
1,555,595473
1,556,594527
1,557,595562
1,558,595733
1,559,595902
1,560,596432
1,561,596390
1,562,597107
1,563,598000
1,564,598547
1,565,598836
1,566,598668
1,567,599654
1,568,600116
1,569,600105
1,570,601538
1,571,601442
1,572,602157
1,573,602413
1,574,603320
1,575,604102
1,576,604785
1,577,605552
1,578,607142
1,579,607372
1,580,607679
1,581,609646
1,582,608864
1,583,609923
1,584,611312
1,585,611564
1,586,611295
1,587,612772
1,588,612261
1,589,611471
1,590,611700
1,591,611248
1,592,612258
1,593,612062
1,594,611986
1,595,612181
1,596,612671
1,597,612602
1,598,612771
1,599,613495
1,600,613874
1,601,613969
1,602,614136
1,603,614472
1,604,615500
1,605,613910
1,606,615108
1,607,613653
1,608,614803
1,609,614557
1,610,613310
1,611,614452
1,612,613883
1,613,614131
1,614,613386
1,615,613483
1,616,612171
1,617,613062
1,618,613725
1,619,613344
1,620,612992
1,621,614268
1,622,614072
1,623,613867
1,624,613561
1,625,614750
1,626,614515
1,627,615237
1,628,614647
1,629,614904
1,630,614739
1,631,614088
1,632,614667
1,633,613441
1,634,614094
1,635,613518
1,636,614528
1,637,613446
1,638,613498
1,639,613470
1,640,613254
1,641,613196
1,642,612172
1,643,614141
1,644,613725
1,645,613549
1,646,613463
1,647,614218
1,648,613762
1,649,613257
1,650,613853
1,651,613882
1,652,613498
1,653,613723
1,654,613732
1,655,613540
1,656,613660
1,657,614227
1,658,614025
1,659,613831
1,660,614550
1,661,614969
1,662,614297
1,663,613651
1,664,612802
1,665,612282
1,666,611002
1,667,609787
1,668,609161
1,669,609296
1,670,607331
1,671,606775
1,672,605662
1,673,605488
1,674,605098
1,675,605052
1,676,604782
1,677,604645
1,678,604520
1,679,603739
1,680,604551
1,681,606259
1,682,603557
1,683,603020
1,684,602621
1,685,602955
1,686,603165
1,687,602625
1,688,602108
1,689,602781
1,690,602076
1,691,601612
1,692,600752
1,693,600431
1,694,599428
1,695,599576
1,696,598562
1,697,598851
1,698,597115
1,699,597666
1,700,596646
1,701,596880
1,702,596369
1,703,595401
1,704,595315
1,705,594933
1,706,594019
1,707,593545
1,708,593794
1,709,593099
1,710,592478
1,711,591654
1,712,591269
1,713,592078
1,714,592208
1,715,591648
1,716,592232
1,717,591631
1,718,592434
1,719,590959
1,720,590688
1,721,589992
1,722,589257
1,723,588830
1,724,589927
1,725,588661
1,726,588421
1,727,587562
1,728,586657
1,729,586467
1,730,585133
1,731,585056
1,732,583825
1,733,581904
1,734,580847
1,735,579279
1,736,577565
1,737,577276
1,738,575497
1,739,573728
1,740,573043
1,741,572195
1,742,571343
1,743,570492
1,744,568100
1,745,568560
1,746,566833
1,747,565869
1,748,564704
1,749,563518
1,750,562746
1,751,561903
1,752,560649
1,753,559697
1,754,559108
1,755,557368
1,756,555747
1,757,555425
1,758,554242
1,759,553795
1,760,552053
1,761,551906
1,762,550780
1,763,549891
1,764,548970
1,765,548555
1,766,547491
1,767,546350
1,768,546117
1,769,544857
1,770,544237
1,771,543685
1,772,543259
1,773,541580
1,774,540995
1,775,540897
1,776,539857
1,777,538857
1,778,538727
1,779,537760
1,780,537952
1,781,537558
1,782,537077
1,783,535703
1,784,535748
1,785,534900
1,786,534851
1,787,533544
1,788,532715
1,789,533150
1,790,531582
1,791,531788
1,792,530658
1,793,530306
1,794,529241
1,795,528216
1,796,528328
1,797,528213
1,798,527136
1,799,527011
1,800,526742
1,801,526198
1,802,525156
1,803,524812
1,804,524195
1,805,524112
1,806,523491
1,807,523050
1,808,522530
1,809,522771
1,810,522018
1,811,522470
1,812,521467
1,813,520808
1,814,521146
1,815,520238
1,816,520283
1,817,519520
1,818,519805
1,819,518738
1,820,519119
1,821,517494
1,822,517884
1,823,517804
1,824,517843
1,825,517381
1,826,518336
1,827,517927
1,828,518687
1,829,518753
1,830,518951
1,831,520545
1,832,520858
1,833,520793
1,834,522545
1,835,523174
1,836,523604
1,837,525310
1,838,526261
1,839,527435
1,840,527650
1,841,528231
1,842,528516
1,843,528180
1,844,527686
1,845,527060
1,846,526226
1,847,524839
1,848,523806
1,849,522504
1,850,521194
1,851,520396
1,852,519069
1,853,517929
1,854,516767
1,855,516818
1,856,515423
1,857,514798
1,858,514758
1,859,514928
1,860,514946
1,861,515879
1,862,516393
1,863,517601
1,864,518317
1,865,519270
1,866,521079
1,867,521548
1,868,520710
1,869,519169
1,870,518658
1,871,517081
1,872,514689
1,873,513261
1,874,510876
1,875,509562
1,876,507743
1,877,506817
1,878,505493
1,879,503849
1,880,503574
1,881,501842
1,882,501681
1,883,500086
1,884,498667
1,885,497233
1,886,496822
1,887,495777
1,888,495290
1,889,494439
1,890,493792
1,891,493904
1,892,493154
1,893,493056
1,894,492076
1,895,492476
1,896,490870
1,897,490026
1,898,490344
1,899,489576
1,900,489696
1,901,489543
1,902,489523
1,903,488463
1,904,488183
1,905,487764
1,906,488735
1,907,487582
1,908,486992
1,909,487253
1,910,486895
1,911,488158
1,912,486766
1,913,486537
1,914,485190
1,915,484730
1,916,484429
1,917,483580
1,918,483996
1,919,483053
1,920,482691
1,921,482319
1,922,481898
1,923,481187
1,924,480621
1,925,481072
1,926,480406
1,927,479995
1,928,480752
1,929,480480
1,930,480572
1,931,480725
1,932,480249
1,933,480599
1,934,480523
1,935,479492
1,936,479604
1,937,480577
1,938,479754
1,939,479027
1,940,478973
1,941,478833
1,942,479108
1,943,480347
1,944,480688
1,945,480607
1,946,480909
1,947,481784
1,948,481125
1,949,483249
1,950,484068
1,951,485873
1,952,487948
1,953,490589
1,954,492810
1,955,497492
1,956,500840
1,957,503590
1,958,506779
1,959,508814
1,960,510103
1,961,509905
1,962,508186
1,963,507140
1,964,504763
1,965,503550
1,966,501356
1,967,500217
1,968,498663
1,969,496944
1,970,495760
1,971,493961
1,972,492727
1,973,490821
1,974,488899
1,975,487350
1,976,485552
1,977,483333
1,978,481233
1,979,479318
1,980,478049
1,981,476311
1,982,473868
1,983,472594
1,984,471212
1,985,470291
1,986,469508
1,987,468560
1,988,467540
1,989,465792
1,990,465807
1,991,464761
1,992,463802
1,993,463792
1,994,463450
1,995,462078
1,996,461886
1,997,462203
1,998,461183
1,999,460769
1,1000,459594
1,1001,459652
1,1002,458642
1,1003,459452
1,1004,458455
1,1005,458081
1,1006,457585
1,1007,456825
1,1008,456977
1,1009,456286
1,1010,456216
1,1011,455917
1,1012,455486
1,1013,455124
1,1014,454533
1,1015,454481
1,1016,453769
1,1017,453980
1,1018,453388
1,1019,453601
1,1020,452866
1,1021,452420
1,1022,452493
1,1023,451691
1,1024,451282
1,1025,451080
1,1026,450641
1,1027,449878
1,1028,449829
1,1029,448837
1,1030,449525
1,1031,449160
1,1032,449135
1,1033,448441
1,1034,448413
1,1035,447960
1,1036,447662
1,1037,447556
1,1038,447164
1,1039,446654
1,1040,446051
1,1041,446000
1,1042,445651
1,1043,444833
1,1044,444875
1,1045,443828
1,1046,444123
1,1047,443097
1,1048,443755
1,1049,443590
1,1050,442430
1,1051,441577
1,1052,442248
1,1053,441612
1,1054,442340
1,1055,441171
1,1056,440534
1,1057,440489
1,1058,440849
1,1059,440256
1,1060,439688
1,1061,439468
1,1062,439283
1,1063,438863
1,1064,438692
1,1065,438438
1,1066,437579
1,1067,437971
1,1068,437401
1,1069,437123
1,1070,437065
1,1071,435920
1,1072,436491
1,1073,435538
1,1074,435637
1,1075,435290
1,1076,434855
1,1077,434241
1,1078,434527
1,1079,434115
1,1080,434001
1,1081,433459
1,1082,433290
1,1083,432882
1,1084,433033
1,1085,433035
1,1086,432646
1,1087,433384
1,1088,432244
1,1089,432539
1,1090,432336
1,1091,432314
1,1092,432027
1,1093,432325
1,1094,432341
1,1095,432979
1,1096,432699
1,1097,433799
1,1098,433337
1,1099,433956
1,1100,434573
1,1101,434599
1,1102,434738
1,1103,436670
1,1104,437097
1,1105,438353
1,1106,440594
1,1107,443381
1,1108,445887
1,1109,449750
1,1110,454604
1,1111,458817
1,1112,464829
1,1113,468652
1,1114,472454
1,1115,474772
1,1116,474487
1,1117,473374
1,1118,469898
1,1119,465399
1,1120,459651
1,1121,453278
1,1122,447367
1,1123,441446
1,1124,435611
1,1125,431496
1,1126,428197
1,1127,424968
1,1128,423194
1,1129,420683
1,1130,419676
1,1131,418185
1,1132,417116
1,1133,416131
1,1134,415397
1,1135,415260
1,1136,414587
1,1137,414006
1,1138,412846
1,1139,412403
1,1140,412001
1,1141,411107
1,1142,410587
1,1143,410159
1,1144,409686
1,1145,409195
1,1146,409190
1,1147,408747
1,1148,407860
1,1149,407341
1,1150,407255
1,1151,406230
1,1152,405687
1,1153,405878
1,1154,404510
1,1155,404544
1,1156,403582
1,1157,403694
1,1158,403362
1,1159,402079
1,1160,402090
1,1161,401776
1,1162,401068
1,1163,401025
1,1164,400916
1,1165,400368
1,1166,400399
1,1167,399644
1,1168,399538
1,1169,399327
1,1170,398999
1,1171,399495
1,1172,399346
1,1173,399299
1,1174,398655
1,1175,398628
1,1176,398772
1,1177,398250
1,1178,399148
1,1179,398943
1,1180,399172
1,1181,398540
1,1182,399348
1,1183,398611
1,1184,398129
1,1185,398349
1,1186,397508
1,1187,396468
1,1188,396322
1,1189,395032
1,1190,393798
1,1191,392713
1,1192,391731
1,1193,390836
1,1194,389913
1,1195,387916
1,1196,387889
1,1197,387088
1,1198,385694
1,1199,385257
1,1200,384319
1,1201,383596
1,1202,383346
1,1203,382629
1,1204,381924
1,1205,380881
1,1206,380180
1,1207,379719
1,1208,379167
1,1209,378478
1,1210,377884
1,1211,376649
1,1212,376641
1,1213,376144
1,1214,375321
1,1215,374800
1,1216,373946
1,1217,373660
1,1218,372558
1,1219,372395
1,1220,370792
1,1221,370813
1,1222,369352
1,1223,369081
1,1224,367975
1,1225,367208
1,1226,366675
1,1227,365662
1,1228,365369
1,1229,365124
1,1230,363702
1,1231,362468
1,1232,361231
1,1233,360576
1,1234,360278
1,1235,359505
1,1236,358410
1,1237,357807
1,1238,356738
1,1239,355362
1,1240,354506
1,1241,354795
1,1242,352651
1,1243,351839
1,1244,351318
1,1245,349933
1,1246,348821
1,1247,348527
1,1248,347356
1,1249,346178
1,1250,345876
1,1251,344396
1,1252,343710
1,1253,342961
1,1254,341261
1,1255,340634
1,1256,339595
1,1257,338786
1,1258,337475
1,1259,335855
1,1260,335495
1,1261,334411
1,1262,334036
1,1263,333025
1,1264,332150
1,1265,330485
1,1266,330276
1,1267,329061
1,1268,328359
1,1269,326936
1,1270,326828
1,1271,325184
1,1272,324424
1,1273,323211
1,1274,322327
1,1275,321155
1,1276,321023
1,1277,319834
1,1278,318756
1,1279,317859
1,1280,315706
1,1281,314878
1,1282,313709
1,1283,312067
1,1284,311109
1,1285,309919
1,1286,308649
1,1287,307011
1,1288,305876
1,1289,305200
1,1290,303490
1,1291,301923
1,1292,300112
1,1293,299484
1,1294,297632
1,1295,296855
1,1296,294919
1,1297,293762
1,1298,292608
1,1299,290943
1,1300,289499
1,1301,288279
1,1302,286328
1,1303,285204
1,1304,283390
1,1305,282264
1,1306,280477
1,1307,278689
1,1308,277258
1,1309,275841
1,1310,274523
1,1311,273127
1,1312,271487
1,1313,269978
1,1314,268204
1,1315,266844
1,1316,265386
1,1317,263630
1,1318,262431
1,1319,261547
1,1320,259918
1,1321,258218
1,1322,256327
1,1323,255151
1,1324,254094
1,1325,252058
1,1326,250568
1,1327,249228
1,1328,247859
1,1329,246349
1,1330,245008
1,1331,243420
1,1332,241996
1,1333,240701
1,1334,239359
1,1335,237115
1,1336,236046
1,1337,234379
1,1338,233169
1,1339,232098
1,1340,230780
